Wavelength (nm) - Plot 0	Amplitude (cts) - Plot 0	
872.496	1028	
872.524	1026	
872.551	1022	
872.579	1022	
872.606	1022	
872.634	1024	
872.661	1032	
872.689	1024	
872.716	1028	
872.744	1026	
872.771	1022	
872.799	1014	
872.826	1022	
872.854	1034	
872.881	1028	
872.909	1016	
872.936	1024	
872.964	1026	
872.991	1030	
873.019	1022	
873.046	1014	
873.074	1022	
873.101	1016	
873.129	1024	
873.156	1026	
873.184	1026	
873.211	1022	
873.239	1030	
873.266	1018	
873.294	1026	
873.321	1030	
873.349	1016	
873.376	1018	
873.404	1026	
873.431	1028	
873.459	1024	
873.486	1018	
873.514	1024	
873.541	1024	
873.569	1022	
873.596	1024	
873.624	1022	
873.651	1024	
873.679	1024	
873.706	1024	
873.733	1020	
873.761	1024	
873.788	1022	
873.816	1024	
873.843	1020	
873.871	1032	
873.898	1034	
873.926	1030	
873.953	1028	
873.981	1022	
874.008	1028	
874.035	1026	
874.063	1026	
874.09	1024	
874.118	1026	
874.145	1018	
874.173	1024	
874.2	1026	
874.228	1028	
874.255	1030	
874.283	1024	
874.31	1028	
874.337	1030	
874.365	1028	
874.392	1028	
874.42	1030	
874.447	1028	
874.475	1028	
874.502	1026	
874.529	1032	
874.557	1022	
874.584	1022	
874.612	1022	
874.639	1022	
874.667	1034	
874.694	1024	
874.721	1032	
874.749	1022	
874.776	1026	
874.804	1024	
874.831	1028	
874.859	1028	
874.886	1026	
874.913	1020	
874.941	1026	
874.968	1024	
874.996	1024	
875.023	1028	
875.05	1016	
875.078	1028	
875.105	1026	
875.133	1022	
875.16	1020	
875.187	1020	
875.215	1024	
875.242	1030	
875.27	1024	
875.297	1020	
875.324	1022	
875.352	1022	
875.379	1030	
875.407	1022	
875.434	1022	
875.461	1018	
875.489	1026	
875.516	1034	
875.544	1024	
875.571	1030	
875.598	1020	
875.626	1030	
875.653	1018	
875.68	1020	
875.708	1032	
875.735	1028	
875.763	1026	
875.79	1026	
875.817	1024	
875.845	1020	
875.872	1030	
875.899	1032	
875.927	1036	
875.954	1034	
875.982	1026	
876.009	1024	
876.036	1034	
876.064	1024	
876.091	1026	
876.118	1034	
876.146	1032	
876.173	1028	
876.2	1024	
876.228	1026	
876.255	1024	
876.283	1026	
876.31	1028	
876.337	1022	
876.365	1024	
876.392	1028	
876.419	1032	
876.447	1028	
876.474	1030	
876.501	1036	
876.529	1030	
876.556	1028	
876.583	1032	
876.611	1032	
876.638	1034	
876.665	1034	
876.693	1032	
876.72	1032	
876.747	1028	
876.775	1040	
876.802	1046	
876.829	1046	
876.857	1046	
876.884	1042	
876.911	1044	
876.939	1038	
876.966	1036	
876.993	1046	
877.021	1038	
877.048	1046	
877.075	1032	
877.103	1038	
877.13	1044	
877.157	1030	
877.184	1038	
877.212	1032	
877.239	1040	
877.266	1030	
877.294	1034	
877.321	1036	
877.348	1030	
877.376	1026	
877.403	1026	
877.43	1030	
877.458	1018	
877.485	1034	
877.512	1024	
877.539	1022	
877.567	1032	
877.594	1030	
877.621	1028	
877.649	1024	
877.676	1028	
877.703	1034	
877.731	1030	
877.758	1024	
877.785	1032	
877.812	1030	
877.84	1026	
877.867	1022	
877.894	1030	
877.922	1032	
877.949	1018	
877.976	1038	
878.003	1024	
878.031	1024	
878.058	1024	
878.085	1032	
878.112	1030	
878.14	1022	
878.167	1024	
878.194	1026	
878.222	1022	
878.249	1022	
878.276	1036	
878.303	1036	
878.331	1028	
878.358	1024	
878.385	1026	
878.412	1030	
878.44	1026	
878.467	1030	
878.494	1024	
878.521	1030	
878.549	1032	
878.576	1030	
878.603	1030	
878.63	1022	
878.658	1022	
878.685	1022	
878.712	1024	
878.739	1026	
878.767	1036	
878.794	1026	
878.821	1026	
878.848	1020	
878.876	1028	
878.903	1026	
878.93	1036	
878.957	1030	
878.984	1022	
879.012	1028	
879.039	1026	
879.066	1032	
879.093	1032	
879.121	1028	
879.148	1024	
879.175	1032	
879.202	1026	
879.23	1026	
879.257	1024	
879.284	1026	
879.311	1028	
879.338	1022	
879.366	1032	
879.393	1022	
879.42	1028	
879.447	1030	
879.474	1028	
879.502	1024	
879.529	1038	
879.556	1032	
879.583	1032	
879.611	1026	
879.638	1032	
879.665	1040	
879.692	1030	
879.719	1032	
879.747	1030	
879.774	1022	
879.801	1030	
879.828	1022	
879.855	1028	
879.883	1026	
879.91	1030	
879.937	1024	
879.964	1028	
879.991	1020	
880.018	1038	
880.046	1022	
880.073	1030	
880.1	1030	
880.127	1028	
880.154	1024	
880.182	1026	
880.209	1030	
880.236	1028	
880.263	1026	
880.29	1026	
880.317	1028	
880.345	1028	
880.372	1024	
880.399	1022	
880.426	1034	
880.453	1028	
880.48	1030	
880.508	1024	
880.535	1026	
880.562	1038	
880.589	1028	
880.616	1028	
880.643	1026	
880.671	1032	
880.698	1034	
880.725	1026	
880.752	1028	
880.779	1036	
880.806	1026	
880.833	1032	
880.861	1030	
880.888	1030	
880.915	1032	
880.942	1038	
880.969	1024	
880.996	1030	
881.023	1026	
881.051	1028	
881.078	1030	
881.105	1024	
881.132	1028	
881.159	1028	
881.186	1030	
881.213	1024	
881.241	1030	
881.268	1026	
881.295	1024	
881.322	1026	
881.349	1034	
881.376	1028	
881.403	1026	
881.43	1032	
881.458	1030	
881.485	1030	
881.512	1028	
881.539	1030	
881.566	1028	
881.593	1026	
881.62	1022	
881.647	1032	
881.674	1030	
881.702	1022	
881.729	1028	
881.756	1028	
881.783	1028	
881.81	1024	
881.837	1026	
881.864	1026	
881.891	1028	
881.918	1022	
881.946	1022	
881.973	1028	
882	1030	
882.027	1036	
882.054	1030	
882.081	1034	
882.108	1028	
882.135	1032	
882.162	1028	
882.189	1032	
882.216	1026	
882.244	1034	
882.271	1030	
882.298	1032	
882.325	1028	
882.352	1028	
882.379	1030	
882.406	1028	
882.433	1026	
882.46	1026	
882.487	1034	
882.514	1028	
882.541	1030	
882.568	1022	
882.596	1026	
882.623	1034	
882.65	1030	
882.677	1028	
882.704	1034	
882.731	1022	
882.758	1030	
882.785	1034	
882.812	1036	
882.839	1032	
882.866	1028	
882.893	1024	
882.92	1028	
882.947	1034	
882.974	1034	
883.001	1024	
883.028	1028	
883.056	1028	
883.083	1026	
883.11	1030	
883.137	1032	
883.164	1038	
883.191	1030	
883.218	1034	
883.245	1028	
883.272	1034	
883.299	1024	
883.326	1024	
883.353	1030	
883.38	1024	
883.407	1030	
883.434	1032	
883.461	1032	
883.488	1026	
883.515	1036	
883.542	1030	
883.569	1026	
883.596	1040	
883.623	1034	
883.65	1030	
883.677	1032	
883.704	1024	
883.731	1032	
883.758	1030	
883.785	1034	
883.812	1034	
883.839	1028	
883.866	1032	
883.893	1038	
883.92	1030	
883.947	1034	
883.974	1036	
884.001	1032	
884.028	1030	
884.055	1036	
884.082	1036	
884.109	1038	
884.136	1036	
884.163	1044	
884.19	1032	
884.217	1034	
884.244	1036	
884.271	1032	
884.298	1036	
884.325	1028	
884.352	1032	
884.379	1032	
884.406	1038	
884.433	1034	
884.46	1028	
884.487	1032	
884.514	1028	
884.541	1028	
884.568	1038	
884.595	1034	
884.622	1032	
884.649	1032	
884.676	1026	
884.703	1028	
884.73	1036	
884.757	1028	
884.784	1030	
884.811	1036	
884.838	1022	
884.865	1024	
884.892	1036	
884.919	1036	
884.946	1036	
884.973	1028	
885	1032	
885.027	1038	
885.054	1026	
885.081	1032	
885.107	1040	
885.134	1028	
885.161	1028	
885.188	1036	
885.215	1032	
885.242	1040	
885.269	1038	
885.296	1034	
885.323	1036	
885.35	1038	
885.377	1034	
885.404	1036	
885.431	1030	
885.458	1040	
885.485	1034	
885.512	1032	
885.539	1038	
885.565	1036	
885.592	1028	
885.619	1032	
885.646	1030	
885.673	1036	
885.7	1032	
885.727	1032	
885.754	1032	
885.781	1036	
885.808	1030	
885.835	1034	
885.862	1032	
885.889	1032	
885.915	1034	
885.942	1022	
885.969	1026	
885.996	1028	
886.023	1030	
886.05	1032	
886.077	1034	
886.104	1026	
886.131	1030	
886.158	1024	
886.185	1032	
886.211	1028	
886.238	1038	
886.265	1030	
886.292	1032	
886.319	1028	
886.346	1032	
886.373	1032	
886.4	1028	
886.427	1032	
886.454	1026	
886.48	1030	
886.507	1032	
886.534	1034	
886.561	1032	
886.588	1032	
886.615	1038	
886.642	1032	
886.669	1034	
886.695	1024	
886.722	1030	
886.749	1030	
886.776	1034	
886.803	1032	
886.83	1026	
886.857	1034	
886.884	1026	
886.91	1034	
886.937	1032	
886.964	1026	
886.991	1034	
887.018	1032	
887.045	1036	
887.072	1032	
887.099	1032	
887.125	1034	
887.152	1028	
887.179	1024	
887.206	1030	
887.233	1032	
887.26	1036	
887.286	1032	
887.313	1034	
887.34	1038	
887.367	1034	
887.394	1032	
887.421	1032	
887.448	1032	
887.474	1030	
887.501	1032	
887.528	1032	
887.555	1044	
887.582	1026	
887.609	1026	
887.635	1032	
887.662	1034	
887.689	1032	
887.716	1030	
887.743	1030	
887.77	1038	
887.796	1036	
887.823	1030	
887.85	1030	
887.877	1030	
887.904	1036	
887.931	1030	
887.957	1036	
887.984	1034	
888.011	1038	
888.038	1036	
888.065	1030	
888.091	1038	
888.118	1028	
888.145	1032	
888.172	1036	
888.199	1024	
888.225	1032	
888.252	1032	
888.279	1032	
888.306	1034	
888.333	1026	
888.359	1034	
888.386	1028	
888.413	1030	
888.44	1032	
888.467	1028	
888.493	1026	
888.52	1028	
888.547	1032	
888.574	1042	
888.601	1032	
888.627	1034	
888.654	1036	
888.681	1030	
888.708	1032	
888.735	1040	
888.761	1034	
888.788	1032	
888.815	1034	
888.842	1028	
888.868	1028	
888.895	1036	
888.922	1032	
888.949	1036	
888.976	1028	
889.002	1028	
889.029	1038	
889.056	1026	
889.083	1032	
889.109	1036	
889.136	1036	
889.163	1026	
889.19	1024	
889.216	1028	
889.243	1028	
889.27	1028	
889.297	1034	
889.323	1040	
889.35	1034	
889.377	1038	
889.404	1034	
889.43	1026	
889.457	1034	
889.484	1036	
889.511	1032	
889.537	1036	
889.564	1030	
889.591	1034	
889.618	1036	
889.644	1036	
889.671	1036	
889.698	1034	
889.725	1034	
889.751	1036	
889.778	1034	
889.805	1034	
889.832	1040	
889.858	1032	
889.885	1038	
889.912	1032	
889.938	1040	
889.965	1032	
889.992	1030	
890.019	1026	
890.045	1036	
890.072	1030	
890.099	1028	
890.125	1036	
890.152	1032	
890.179	1034	
890.206	1030	
890.232	1032	
890.259	1030	
890.286	1030	
890.312	1026	
890.339	1034	
890.366	1030	
890.393	1038	
890.419	1032	
890.446	1030	
890.473	1026	
890.499	1030	
890.526	1032	
890.553	1034	
890.579	1036	
890.606	1032	
890.633	1032	
890.659	1030	
890.686	1034	
890.713	1036	
890.74	1032	
890.766	1034	
890.793	1038	
890.82	1030	
890.846	1032	
890.873	1030	
890.9	1028	
890.926	1038	
890.953	1034	
890.98	1032	
891.006	1034	
891.033	1042	
891.06	1030	
891.086	1030	
891.113	1034	
891.14	1032	
891.166	1030	
891.193	1034	
891.22	1030	
891.246	1024	
891.273	1030	
891.3	1032	
891.326	1036	
891.353	1032	
891.38	1030	
891.406	1032	
891.433	1030	
891.46	1026	
891.486	1028	
891.513	1038	
891.54	1026	
891.566	1036	
891.593	1038	
891.619	1034	
891.646	1030	
891.673	1034	
891.699	1038	
891.726	1032	
891.753	1042	
891.779	1030	
891.806	1038	
891.833	1040	
891.859	1038	
891.886	1036	
891.912	1032	
891.939	1028	
891.966	1034	
891.992	1032	
892.019	1028	
892.046	1040	
892.072	1030	
892.099	1036	
892.125	1040	
892.152	1038	
892.179	1032	
892.205	1036	
892.232	1036	
892.259	1036	
892.285	1034	
892.312	1040	
892.338	1032	
892.365	1040	
892.392	1034	
892.418	1032	
892.445	1036	
892.471	1030	
892.498	1034	
892.525	1034	
892.551	1040	
892.578	1038	
892.604	1038	
892.631	1038	
892.658	1030	
892.684	1036	
892.711	1032	
892.737	1038	
892.764	1034	
892.791	1038	
892.817	1028	
892.844	1036	
892.87	1036	
892.897	1034	
892.923	1032	
892.95	1036	
892.977	1038	
893.003	1038	
893.03	1032	
893.056	1032	
893.083	1036	
893.109	1030	
893.136	1030	
893.163	1030	
893.189	1044	
893.216	1038	
893.242	1036	
893.269	1038	
893.295	1028	
893.322	1042	
893.349	1038	
893.375	1042	
893.402	1044	
893.428	1040	
893.455	1036	
893.481	1034	
893.508	1040	
893.534	1038	
893.561	1030	
893.588	1040	
893.614	1038	
893.641	1034	
893.667	1040	
893.694	1034	
893.72	1036	
893.747	1030	
893.773	1036	
893.8	1034	
893.826	1036	
893.853	1040	
893.879	1034	
893.906	1032	
893.933	1040	
893.959	1038	
893.986	1036	
894.012	1032	
894.039	1036	
894.065	1036	
894.092	1030	
894.118	1030	
894.145	1036	
894.171	1034	
894.198	1036	
894.224	1036	
894.251	1032	
894.277	1026	
894.304	1030	
894.33	1030	
894.357	1042	
894.383	1034	
894.41	1046	
894.436	1034	
894.463	1034	
894.489	1030	
894.516	1042	
894.542	1040	
894.569	1034	
894.595	1036	
894.622	1032	
894.648	1030	
894.675	1032	
894.701	1036	
894.728	1040	
894.754	1032	
894.781	1040	
894.807	1034	
894.834	1036	
894.86	1038	
894.887	1042	
894.913	1042	
894.94	1046	
894.966	1038	
894.993	1042	
895.019	1042	
895.046	1044	
895.072	1044	
895.099	1036	
895.125	1040	
895.152	1040	
895.178	1030	
895.205	1044	
895.231	1044	
895.257	1034	
895.284	1040	
895.31	1040	
895.337	1036	
895.363	1036	
895.39	1032	
895.416	1032	
895.443	1034	
895.469	1034	
895.496	1034	
895.522	1038	
895.548	1034	
895.575	1038	
895.601	1036	
895.628	1040	
895.654	1036	
895.681	1030	
895.707	1032	
895.734	1040	
895.76	1038	
895.787	1034	
895.813	1036	
895.839	1032	
895.866	1040	
895.892	1038	
895.919	1038	
895.945	1036	
895.972	1040	
895.998	1036	
896.024	1036	
896.051	1038	
896.077	1042	
896.104	1038	
896.13	1038	
896.157	1038	
896.183	1044	
896.209	1040	
896.236	1042	
896.262	1048	
896.289	1034	
896.315	1034	
896.341	1042	
896.368	1040	
896.394	1042	
896.421	1040	
896.447	1040	
896.473	1046	
896.5	1040	
896.526	1036	
896.553	1040	
896.579	1036	
896.605	1038	
896.632	1038	
896.658	1042	
896.685	1046	
896.711	1042	
896.737	1044	
896.764	1038	
896.79	1036	
896.817	1046	
896.843	1042	
896.869	1042	
896.896	1038	
896.922	1036	
896.949	1036	
896.975	1050	
897.001	1046	
897.028	1034	
897.054	1048	
897.08	1044	
897.107	1036	
897.133	1048	
897.16	1042	
897.186	1048	
897.212	1048	
897.239	1040	
897.265	1044	
897.291	1040	
897.318	1040	
897.344	1046	
897.371	1040	
897.397	1040	
897.423	1038	
897.45	1052	
897.476	1042	
897.502	1050	
897.529	1052	
897.555	1050	
897.581	1040	
897.608	1046	
897.634	1040	
897.66	1050	
897.687	1052	
897.713	1038	
897.739	1042	
897.766	1042	
897.792	1042	
897.818	1044	
897.845	1040	
897.871	1050	
897.897	1040	
897.924	1042	
897.95	1040	
897.976	1040	
898.003	1036	
898.029	1040	
898.055	1044	
898.082	1038	
898.108	1042	
898.134	1042	
898.161	1042	
898.187	1048	
898.213	1038	
898.24	1044	
898.266	1050	
898.292	1042	
898.319	1048	
898.345	1042	
898.371	1038	
898.398	1042	
898.424	1040	
898.45	1044	
898.477	1042	
898.503	1044	
898.529	1046	
898.555	1044	
898.582	1052	
898.608	1040	
898.634	1038	
898.661	1056	
898.687	1046	
898.713	1052	
898.739	1034	
898.766	1040	
898.792	1036	
898.818	1040	
898.845	1046	
898.871	1034	
898.897	1040	
898.924	1044	
898.95	1042	
898.976	1036	
899.002	1034	
899.029	1042	
899.055	1044	
899.081	1040	
899.107	1042	
899.134	1042	
899.16	1048	
899.186	1040	
899.213	1048	
899.239	1038	
899.265	1032	
899.291	1044	
899.318	1040	
899.344	1046	
899.37	1040	
899.396	1046	
899.423	1050	
899.449	1038	
899.475	1040	
899.501	1038	
899.528	1044	
899.554	1042	
899.58	1040	
899.606	1046	
899.633	1042	
899.659	1048	
899.685	1040	
899.711	1040	
899.738	1044	
899.764	1046	
899.79	1038	
899.816	1044	
899.843	1042	
899.869	1034	
899.895	1040	
899.921	1042	
899.948	1046	
899.974	1040	
900	1050	
900.026	1042	
900.052	1048	
900.079	1046	
900.105	1044	
900.131	1050	
900.157	1050	
900.184	1056	
900.21	1048	
900.236	1050	
900.262	1044	
900.288	1048	
900.315	1038	
900.341	1036	
900.367	1036	
900.393	1050	
900.419	1044	
900.446	1052	
900.472	1042	
900.498	1042	
900.524	1048	
900.551	1048	
900.577	1052	
900.603	1034	
900.629	1044	
900.655	1050	
900.681	1042	
900.708	1044	
900.734	1042	
900.76	1042	
900.786	1048	
900.812	1046	
900.839	1038	
900.865	1044	
900.891	1048	
900.917	1044	
900.943	1044	
900.97	1040	
900.996	1044	
901.022	1042	
901.048	1048	
901.074	1046	
901.1	1046	
901.127	1046	
901.153	1050	
901.179	1044	
901.205	1038	
901.231	1044	
901.257	1040	
901.284	1040	
901.31	1050	
901.336	1036	
901.362	1048	
901.388	1044	
901.414	1046	
901.441	1048	
901.467	1042	
901.493	1048	
901.519	1042	
901.545	1036	
901.571	1044	
901.597	1052	
901.624	1054	
901.65	1048	
901.676	1052	
901.702	1044	
901.728	1046	
901.754	1040	
901.78	1046	
901.807	1040	
901.833	1040	
901.859	1038	
901.885	1046	
901.911	1046	
901.937	1036	
901.963	1048	
901.99	1046	
902.016	1046	
902.042	1044	
902.068	1038	
902.094	1046	
902.12	1042	
902.146	1042	
902.172	1038	
902.199	1044	
902.225	1042	
902.251	1046	
902.277	1048	
902.303	1042	
902.329	1050	
902.355	1034	
902.381	1038	
902.407	1046	
902.434	1048	
902.46	1042	
902.486	1040	
902.512	1044	
902.538	1044	
902.564	1044	
902.59	1044	
902.616	1042	
902.642	1048	
902.668	1046	
902.695	1034	
902.721	1044	
902.747	1042	
902.773	1040	
902.799	1042	
902.825	1044	
902.851	1036	
902.877	1034	
902.903	1036	
902.929	1048	
902.955	1048	
902.981	1040	
903.008	1046	
903.034	1046	
903.06	1038	
903.086	1038	
903.112	1044	
903.138	1046	
903.164	1042	
903.19	1048	
903.216	1044	
903.242	1052	
903.268	1046	
903.294	1044	
903.32	1034	
903.346	1042	
903.372	1040	
903.398	1042	
903.425	1044	
903.451	1050	
903.477	1042	
903.503	1046	
903.529	1044	
903.555	1046	
903.581	1044	
903.607	1042	
903.633	1050	
903.659	1042	
903.685	1038	
903.711	1040	
903.737	1042	
903.763	1046	
903.789	1042	
903.815	1046	
903.841	1050	
903.867	1046	
903.893	1040	
903.919	1044	
903.945	1048	
903.971	1036	
903.997	1044	
904.023	1040	
904.049	1056	
904.075	1048	
904.101	1054	
904.128	1042	
904.154	1046	
904.18	1048	
904.206	1044	
904.232	1046	
904.258	1044	
904.284	1048	
904.31	1052	
904.336	1050	
904.362	1046	
904.388	1050	
904.414	1040	
904.44	1040	
904.466	1046	
904.492	1040	
904.518	1048	
904.544	1052	
904.57	1044	
904.596	1046	
904.622	1044	
904.648	1038	
904.674	1034	
904.7	1046	
904.726	1048	
904.752	1050	
904.778	1048	
904.804	1040	
904.829	1038	
904.855	1050	
904.881	1040	
904.907	1036	
904.933	1044	
904.959	1046	
904.985	1046	
905.011	1044	
905.037	1050	
905.063	1044	
905.089	1048	
905.115	1040	
905.141	1042	
905.167	1044	
905.193	1048	
905.219	1044	
905.245	1042	
905.271	1044	
905.297	1046	
905.323	1038	
905.349	1046	
905.375	1038	
905.401	1036	
905.427	1046	
905.453	1038	
905.479	1034	
905.505	1040	
905.53	1042	
905.556	1044	
905.582	1042	
905.608	1042	
905.634	1042	
905.66	1052	
905.686	1038	
905.712	1040	
905.738	1042	
905.764	1046	
905.79	1040	
905.816	1048	
905.842	1044	
905.868	1050	
905.894	1044	
905.92	1038	
905.945	1046	
905.971	1044	
905.997	1046	
906.023	1038	
906.049	1030	
906.075	1034	
906.101	1046	
906.127	1040	
906.153	1036	
906.179	1052	
906.205	1046	
906.231	1036	
906.256	1042	
906.282	1042	
906.308	1042	
906.334	1038	
906.36	1038	
906.386	1052	
906.412	1040	
906.438	1036	
906.464	1044	
906.49	1038	
906.515	1036	
906.541	1040	
906.567	1036	
906.593	1038	
906.619	1036	
906.645	1048	
906.671	1040	
906.697	1040	
906.723	1042	
906.748	1044	
906.774	1050	
906.8	1038	
906.826	1046	
906.852	1040	
906.878	1042	
906.904	1040	
906.93	1048	
906.955	1046	
906.981	1042	
907.007	1042	
907.033	1044	
907.059	1042	
907.085	1042	
907.111	1040	
907.136	1042	
907.162	1048	
907.188	1036	
907.214	1044	
907.24	1044	
907.266	1044	
907.292	1044	
907.317	1044	
907.343	1038	
907.369	1042	
907.395	1044	
907.421	1040	
907.447	1036	
907.473	1036	
907.498	1038	
907.524	1034	
907.55	1040	
907.576	1040	
907.602	1042	
907.628	1042	
907.653	1044	
907.679	1038	
907.705	1044	
907.731	1042	
907.757	1054	
907.783	1048	
907.808	1044	
907.834	1040	
907.86	1050	
907.886	1042	
907.912	1050	
907.937	1042	
907.963	1044	
907.989	1034	
908.015	1038	
908.041	1038	
908.067	1040	
908.092	1040	
908.118	1044	
908.144	1046	
908.17	1050	
908.196	1046	
908.221	1046	
908.247	1046	
908.273	1040	
908.299	1044	
908.325	1052	
908.35	1042	
908.376	1038	
908.402	1038	
908.428	1040	
908.454	1038	
908.479	1042	
908.505	1044	
908.531	1038	
908.557	1042	
908.583	1044	
908.608	1040	
908.634	1050	
908.66	1042	
908.686	1034	
908.711	1040	
908.737	1036	
908.763	1042	
908.789	1044	
908.815	1044	
908.84	1038	
908.866	1040	
908.892	1038	
908.918	1042	
908.943	1050	
908.969	1038	
908.995	1042	
909.021	1044	
909.046	1038	
909.072	1034	
909.098	1036	
909.124	1042	
909.149	1040	
909.175	1042	
909.201	1044	
909.227	1042	
909.252	1042	
909.278	1036	
909.304	1042	
909.33	1038	
909.355	1042	
909.381	1038	
909.407	1046	
909.433	1048	
909.458	1042	
909.484	1040	
909.51	1038	
909.536	1044	
909.561	1044	
909.587	1040	
909.613	1036	
909.639	1042	
909.664	1048	
909.69	1042	
909.716	1042	
909.741	1042	
909.767	1036	
909.793	1038	
909.819	1042	
909.844	1042	
909.87	1042	
909.896	1040	
909.921	1044	
909.947	1038	
909.973	1044	
909.999	1038	
910.024	1046	
910.05	1038	
910.076	1038	
910.101	1030	
910.127	1046	
910.153	1042	
910.179	1040	
910.204	1038	
910.23	1036	
910.256	1044	
910.281	1036	
910.307	1040	
910.333	1026	
910.358	1038	
910.384	1036	
910.41	1044	
910.435	1038	
910.461	1038	
910.487	1044	
910.513	1046	
910.538	1040	
910.564	1044	
910.59	1038	
910.615	1046	
910.641	1036	
910.667	1038	
910.692	1042	
910.718	1036	
910.744	1042	
910.769	1038	
910.795	1046	
910.821	1040	
910.846	1034	
910.872	1044	
910.898	1040	
910.923	1046	
910.949	1038	
910.975	1042	
911	1034	
911.026	1042	
911.052	1042	
911.077	1040	
911.103	1034	
911.129	1042	
911.154	1038	
911.18	1048	
911.205	1038	
911.231	1042	
911.257	1042	
911.282	1036	
911.308	1040	
911.334	1036	
911.359	1040	
911.385	1044	
911.411	1042	
911.436	1034	
911.462	1038	
911.487	1032	
911.513	1040	
911.539	1040	
911.564	1040	
911.59	1046	
911.616	1044	
911.641	1034	
911.667	1038	
911.692	1034	
911.718	1044	
911.744	1042	
911.769	1044	
911.795	1038	
911.821	1042	
911.846	1034	
911.872	1036	
911.897	1038	
911.923	1040	
911.949	1040	
911.974	1038	
912	1040	
912.025	1032	
912.051	1036	
912.077	1036	
912.102	1044	
912.128	1034	
912.153	1042	
912.179	1040	
912.205	1038	
912.23	1032	
912.256	1034	
912.281	1040	
912.307	1040	
912.332	1030	
912.358	1038	
912.384	1040	
912.409	1044	
912.435	1044	
912.46	1044	
912.486	1042	
912.512	1046	
912.537	1040	
912.563	1042	
912.588	1048	
912.614	1038	
912.639	1040	
912.665	1042	
912.691	1026	
912.716	1036	
912.742	1034	
912.767	1040	
912.793	1038	
912.818	1036	
912.844	1038	
912.869	1034	
912.895	1044	
912.921	1040	
912.946	1042	
912.972	1038	
912.997	1038	
913.023	1038	
913.048	1040	
913.074	1044	
913.099	1042	
913.125	1042	
913.15	1042	
913.176	1048	
913.202	1038	
913.227	1038	
913.253	1036	
913.278	1032	
913.304	1036	
913.329	1044	
913.355	1034	
913.38	1034	
913.406	1040	
913.431	1040	
913.457	1038	
913.482	1038	
913.508	1038	
913.533	1042	
913.559	1044	
913.584	1036	
913.61	1038	
913.635	1044	
913.661	1036	
913.687	1036	
913.712	1038	
913.738	1040	
913.763	1036	
913.789	1042	
913.814	1036	
913.84	1040	
913.865	1042	
913.891	1044	
913.916	1044	
913.942	1044	
913.967	1042	
913.993	1044	
914.018	1046	
914.044	1040	
914.069	1038	
914.094	1034	
914.12	1042	
914.145	1046	
914.171	1040	
914.196	1038	
914.222	1040	
914.247	1038	
914.273	1038	
914.298	1040	
914.324	1036	
914.349	1034	
914.375	1040	
914.4	1040	
914.426	1036	
914.451	1040	
914.477	1034	
914.502	1042	
914.528	1036	
914.553	1036	
914.579	1036	
914.604	1038	
914.629	1036	
914.655	1034	
914.68	1040	
914.706	1044	
914.731	1034	
914.757	1036	
914.782	1034	
914.808	1044	
914.833	1034	
914.859	1030	
914.884	1040	
914.909	1034	
914.935	1042	
914.96	1038	
914.986	1028	
915.011	1044	
915.037	1034	
915.062	1030	
915.087	1044	
915.113	1048	
915.138	1038	
915.164	1044	
915.189	1030	
915.215	1034	
915.24	1028	
915.266	1038	
915.291	1044	
915.316	1034	
915.342	1032	
915.367	1044	
915.393	1040	
915.418	1036	
915.443	1042	
915.469	1034	
915.494	1040	
915.52	1030	
915.545	1034	
915.57	1040	
915.596	1028	
915.621	1038	
915.647	1042	
915.672	1030	
915.698	1038	
915.723	1038	
915.748	1034	
915.774	1040	
915.799	1038	
915.825	1036	
915.85	1046	
915.875	1040	
915.901	1036	
915.926	1044	
915.951	1036	
915.977	1034	
916.002	1032	
916.028	1040	
916.053	1034	
916.078	1046	
916.104	1046	
916.129	1046	
916.155	1034	
916.18	1038	
916.205	1032	
916.231	1040	
916.256	1034	
916.281	1030	
916.307	1038	
916.332	1034	
916.357	1038	
916.383	1036	
916.408	1040	
916.434	1030	
916.459	1036	
916.484	1036	
916.51	1038	
916.535	1032	
916.56	1038	
916.586	1040	
916.611	1036	
916.636	1038	
916.662	1038	
916.687	1036	
916.712	1040	
916.738	1046	
916.763	1046	
916.788	1032	
916.814	1038	
916.839	1048	
916.864	1034	
916.89	1040	
916.915	1042	
916.94	1036	
916.966	1044	
916.991	1034	
917.016	1038	
917.042	1036	
917.067	1044	
917.092	1038	
917.118	1038	
917.143	1038	
917.168	1038	
917.194	1038	
917.219	1040	
917.244	1042	
917.27	1034	
917.295	1038	
917.32	1038	
917.346	1036	
917.371	1042	
917.396	1034	
917.422	1038	
917.447	1032	
917.472	1034	
917.497	1038	
917.523	1034	
917.548	1042	
917.573	1032	
917.599	1044	
917.624	1034	
917.649	1042	
917.675	1028	
917.7	1044	
917.725	1038	
917.75	1044	
917.776	1034	
917.801	1034	
917.826	1034	
917.852	1038	
917.877	1042	
917.902	1036	
917.927	1040	
917.953	1040	
917.978	1034	
918.003	1040	
918.028	1036	
918.054	1036	
918.079	1038	
918.104	1040	
918.13	1036	
918.155	1038	
918.18	1038	
918.205	1042	
918.231	1026	
918.256	1030	
918.281	1044	
918.306	1030	
918.332	1032	
918.357	1034	
918.382	1038	
918.407	1030	
918.433	1040	
918.458	1038	
918.483	1040	
918.508	1032	
918.534	1042	
918.559	1042	
918.584	1034	
918.609	1040	
918.635	1036	
918.66	1034	
918.685	1034	
918.71	1034	
918.736	1038	
918.761	1040	
918.786	1034	
918.811	1034	
918.836	1038	
918.862	1030	
918.887	1038	
918.912	1038	
918.937	1034	
918.963	1038	
918.988	1034	
919.013	1038	
919.038	1032	
919.063	1036	
919.089	1036	
919.114	1038	
919.139	1034	
919.164	1040	
919.19	1038	
919.215	1036	
919.24	1026	
919.265	1034	
919.29	1036	
919.316	1032	
919.341	1030	
919.366	1032	
919.391	1032	
919.416	1036	
919.442	1034	
919.467	1034	
919.492	1036	
919.517	1036	
919.542	1036	
919.567	1038	
919.593	1034	
919.618	1034	
919.643	1034	
919.668	1038	
919.693	1030	
919.719	1032	
919.744	1038	
919.769	1032	
919.794	1042	
919.819	1038	
919.844	1034	
919.87	1032	
919.895	1030	
919.92	1030	
919.945	1032	
919.97	1042	
919.995	1028	
920.021	1042	
920.046	1042	
920.071	1034	
920.096	1042	
920.121	1044	
920.146	1036	
920.172	1038	
920.197	1034	
920.222	1038	
920.247	1034	
920.272	1040	
920.297	1036	
920.322	1038	
920.348	1030	
920.373	1034	
920.398	1036	
920.423	1036	
920.448	1042	
920.473	1042	
920.498	1034	
920.524	1032	
920.549	1042	
920.574	1042	
920.599	1042	
920.624	1034	
920.649	1040	
920.674	1036	
920.699	1038	
920.725	1036	
920.75	1048	
920.775	1040	
920.8	1040	
920.825	1038	
920.85	1038	
920.875	1038	
920.9	1040	
920.925	1034	
920.951	1044	
920.976	1036	
921.001	1040	
921.026	1040	
921.051	1030	
921.076	1034	
921.101	1036	
921.126	1038	
921.151	1048	
921.177	1038	
921.202	1036	
921.227	1040	
921.252	1038	
921.277	1034	
921.302	1034	
921.327	1034	
921.352	1040	
921.377	1044	
921.402	1036	
921.427	1034	
921.452	1036	
921.478	1036	
921.503	1042	
921.528	1036	
921.553	1040	
921.578	1034	
921.603	1038	
921.628	1034	
921.653	1040	
921.678	1030	
921.703	1032	
921.728	1042	
921.753	1036	
921.778	1034	
921.803	1034	
921.829	1038	
921.854	1042	
921.879	1038	
921.904	1036	
921.929	1030	
921.954	1034	
921.979	1034	
922.004	1030	
922.029	1040	
922.054	1038	
922.079	1038	
922.104	1034	
922.129	1040	
922.154	1036	
922.179	1042	
922.204	1036	
922.229	1034	
922.254	1038	
922.279	1036	
922.304	1036	
922.329	1032	
922.354	1038	
922.379	1034	
922.405	1034	
922.43	1038	
922.455	1028	
922.48	1032	
922.505	1030	
922.53	1040	
922.555	1036	
922.58	1034	
922.605	1040	
922.63	1036	
922.655	1036	
922.68	1036	
922.705	1028	
922.73	1032	
922.755	1036	
922.78	1034	
922.805	1028	
922.83	1032	
922.855	1040	
922.88	1038	
922.905	1028	
922.93	1038	
922.955	1036	
922.98	1034	
923.005	1036	
923.03	1034	
923.055	1034	
923.08	1036	
923.105	1028	
923.13	1032	
923.155	1036	
923.18	1034	
923.205	1028	
923.23	1030	
923.255	1028	
923.28	1028	
923.305	1038	
923.33	1034	
923.354	1034	
923.379	1038	
923.404	1038	
923.429	1038	
923.454	1036	
923.479	1040	
923.504	1042	
923.529	1038	
923.554	1036	
923.579	1036	
923.604	1034	
923.629	1038	
923.654	1042	
923.679	1040	
923.704	1030	
923.729	1034	
923.754	1032	
923.779	1036	
923.804	1038	
923.829	1032	
923.854	1036	
923.879	1038	
923.904	1032	
923.928	1036	
923.953	1036	
923.978	1034	
924.003	1030	
924.028	1044	
924.053	1038	
924.078	1042	
924.103	1034	
924.128	1034	
924.153	1034	
924.178	1038	
924.203	1040	
924.228	1036	
924.253	1040	
924.277	1042	
924.302	1036	
924.327	1038	
924.352	1038	
924.377	1032	
924.402	1042	
924.427	1034	
924.452	1036	
924.477	1036	
924.502	1042	
924.527	1034	
924.552	1040	
924.576	1032	
924.601	1032	
924.626	1042	
924.651	1036	
924.676	1034	
924.701	1040	
924.726	1034	
924.751	1030	
924.776	1034	
924.8	1030	
924.825	1032	
924.85	1034	
924.875	1036	
924.9	1036	
924.925	1036	
924.95	1032	
924.975	1038	
925	1040	
925.024	1042	
925.049	1046	
925.074	1040	
925.099	1034	
925.124	1028	
925.149	1032	
925.174	1036	
925.199	1040	
925.223	1030	
925.248	1030	
925.273	1034	
925.298	1032	
925.323	1036	
925.348	1038	
925.373	1034	
925.397	1028	
925.422	1034	
925.447	1036	
925.472	1036	
925.497	1032	
925.522	1036	
925.547	1040	
925.571	1036	
925.596	1034	
925.621	1030	
925.646	1032	
925.671	1030	
925.696	1038	
925.72	1030	
925.745	1038	
925.77	1044	
925.795	1038	
925.82	1036	
925.845	1036	
925.869	1038	
925.894	1030	
925.919	1042	
925.944	1036	
925.969	1034	
925.994	1036	
926.018	1034	
926.043	1032	
926.068	1040	
926.093	1034	
926.118	1038	
