Wavelength (nm) - Plot 0	Amplitude (cts) - Plot 0	
689.515	3328	
689.546	3420	
689.576	3458	
689.606	3540	
689.637	3604	
689.667	3640	
689.697	3714	
689.728	3672	
689.758	3776	
689.789	3752	
689.819	3822	
689.849	3838	
689.88	3904	
689.91	3860	
689.94	3920	
689.971	3976	
690.001	3958	
690.031	4008	
690.062	3972	
690.092	3976	
690.122	3980	
690.153	3986	
690.183	3956	
690.213	4002	
690.244	3972	
690.274	4022	
690.304	3978	
690.335	4044	
690.365	3990	
690.395	4028	
690.426	4008	
690.456	4002	
690.486	4040	
690.517	4006	
690.547	4072	
690.577	4036	
690.608	4022	
690.638	4016	
690.668	4022	
690.699	4026	
690.729	4018	
690.759	3964	
690.79	4028	
690.82	3988	
690.85	4018	
690.88	3976	
690.911	3998	
690.941	3956	
690.971	3982	
691.002	4032	
691.032	3998	
691.062	3966	
691.093	3992	
691.123	3960	
691.153	3996	
691.184	3994	
691.214	4016	
691.244	3918	
691.274	3962	
691.305	3964	
691.335	3952	
691.365	3932	
691.396	3932	
691.426	3990	
691.456	3958	
691.487	3990	
691.517	4040	
691.547	3976	
691.577	3996	
691.608	3960	
691.638	4012	
691.668	4018	
691.699	4004	
691.729	4010	
691.759	4036	
691.789	3996	
691.82	4026	
691.85	4000	
691.88	4008	
691.91	3966	
691.941	3940	
691.971	3998	
692.001	3958	
692.032	3988	
692.062	4026	
692.092	4032	
692.122	4050	
692.153	4086	
692.183	4144	
692.213	4112	
692.243	4266	
692.274	4430	
692.304	4598	
692.334	4778	
692.365	5064	
692.395	5558	
692.425	6434	
692.455	7004	
692.486	7190	
692.516	7234	
692.546	7470	
692.576	7664	
692.607	8032	
692.637	8150	
692.667	8202	
692.697	7338	
692.728	6624	
692.758	5990	
692.788	5154	
692.818	4522	
692.849	4184	
692.879	4106	
692.909	3960	
692.939	3940	
692.97	3910	
693	3932	
693.03	3910	
693.06	3946	
693.09	3886	
693.121	3904	
693.151	3840	
693.181	3914	
693.211	3842	
693.242	3904	
693.272	3876	
693.302	3888	
693.332	3902	
693.363	3946	
693.393	3824	
693.423	3852	
693.453	3852	
693.483	3818	
693.514	3870	
693.544	3884	
693.574	3868	
693.604	3874	
693.635	3866	
693.665	3858	
693.695	3818	
693.725	3878	
693.755	3814	
693.786	3820	
693.816	3850	
693.846	3900	
693.876	3818	
693.906	3846	
693.937	3844	
693.967	3864	
693.997	3832	
694.027	3790	
694.058	3842	
694.088	3822	
694.118	3828	
694.148	3836	
694.178	3840	
694.208	3878	
694.239	3860	
694.269	3848	
694.299	3890	
694.329	3822	
694.359	3844	
694.39	3858	
694.42	3906	
694.45	3870	
694.48	3828	
694.51	3844	
694.541	3892	
694.571	3826	
694.601	3850	
694.631	3800	
694.661	3862	
694.692	3868	
694.722	3818	
694.752	3846	
694.782	3840	
694.812	3842	
694.842	3878	
694.873	3884	
694.903	3860	
694.933	3898	
694.963	3860	
694.993	3894	
695.023	3850	
695.054	3846	
695.084	3842	
695.114	3840	
695.144	3822	
695.174	3780	
695.204	3822	
695.235	3846	
695.265	3824	
695.295	3864	
695.325	3848	
695.355	3812	
695.385	3830	
695.416	3876	
695.446	3876	
695.476	3840	
695.506	3834	
695.536	3816	
695.566	3854	
695.596	3858	
695.627	3862	
695.657	3782	
695.687	3834	
695.717	3794	
695.747	3820	
695.777	3846	
695.807	3816	
695.838	3802	
695.868	3862	
695.898	3866	
695.928	3828	
695.958	3778	
695.988	3842	
696.018	3820	
696.048	3806	
696.079	3854	
696.109	3856	
696.139	3860	
696.169	3808	
696.199	3866	
696.229	3824	
696.259	3834	
696.29	3868	
696.32	3854	
696.35	3796	
696.38	3830	
696.41	3878	
696.44	3844	
696.47	3886	
696.5	3896	
696.53	3866	
696.561	3830	
696.591	3874	
696.621	3906	
696.651	3914	
696.681	3894	
696.711	3920	
696.741	3900	
696.771	3866	
696.801	3864	
696.832	3834	
696.862	3866	
696.892	3894	
696.922	3858	
696.952	3856	
696.982	3918	
697.012	3852	
697.042	3848	
697.072	3804	
697.102	3870	
697.133	3860	
697.163	3826	
697.193	3810	
697.223	3820	
697.253	3850	
697.283	3806	
697.313	3834	
697.343	3826	
697.373	3818	
697.403	3812	
697.433	3866	
697.463	3846	
697.494	3828	
697.524	3846	
697.554	3818	
697.584	3864	
697.614	3866	
697.644	3816	
697.674	3862	
697.704	3822	
697.734	3866	
697.764	3814	
697.794	3808	
697.824	3862	
697.854	3834	
697.884	3804	
697.915	3860	
697.945	3832	
697.975	3860	
698.005	3816	
698.035	3848	
698.065	3822	
698.095	3848	
698.125	3800	
698.155	3822	
698.185	3810	
698.215	3868	
698.245	3858	
698.275	3864	
698.305	3872	
698.335	3830	
698.365	3892	
698.395	3852	
698.425	3844	
698.456	3822	
698.486	3822	
698.516	3882	
698.546	3838	
698.576	3836	
698.606	3864	
698.636	3828	
698.666	3842	
698.696	3816	
698.726	3824	
698.756	3836	
698.786	3822	
698.816	3816	
698.846	3862	
698.876	3828	
698.906	3862	
698.936	3868	
698.966	3800	
698.996	3870	
699.026	3852	
699.056	3790	
699.086	3834	
699.116	3866	
699.146	3862	
699.176	3834	
699.206	3860	
699.236	3884	
699.266	3864	
699.296	3868	
699.326	3884	
699.356	3872	
699.386	3840	
699.416	3886	
699.446	3864	
699.476	3808	
699.506	3868	
699.536	3822	
699.566	3844	
699.596	3832	
699.626	3898	
699.656	3886	
699.686	3830	
699.716	3870	
699.746	3860	
699.776	3898	
699.806	3854	
699.836	3814	
699.866	3824	
699.896	3860	
699.926	3894	
699.956	3898	
699.986	3854	
700.016	3894	
700.046	3856	
700.076	3842	
700.106	3844	
700.136	3864	
700.166	3874	
700.196	3836	
700.226	3876	
700.256	3892	
700.286	3892	
700.316	3836	
700.346	3850	
700.376	3876	
700.406	3880	
700.436	3910	
700.466	3842	
700.496	3898	
700.526	3894	
700.556	3920	
700.586	3892	
700.616	3878	
700.646	3854	
700.676	3898	
700.706	3862	
700.736	3900	
700.766	3856	
700.796	3892	
700.826	3814	
700.856	3874	
700.886	3866	
700.915	3868	
700.945	3872	
700.975	3852	
701.005	3930	
701.035	3840	
701.065	3878	
701.095	3912	
701.125	3868	
701.155	3902	
701.185	3834	
701.215	3894	
701.245	3864	
701.275	3908	
701.305	3856	
701.335	3866	
701.365	3892	
701.395	3856	
701.425	3916	
701.454	3890	
701.484	3904	
701.514	3866	
701.544	3902	
701.574	3904	
701.604	3894	
701.634	3922	
701.664	3848	
701.694	3878	
701.724	3896	
701.754	3886	
701.784	3922	
701.814	3934	
701.844	3906	
701.873	3902	
701.903	3932	
701.933	3912	
701.963	3952	
701.993	3872	
702.023	3918	
702.053	3958	
702.083	3880	
702.113	3928	
702.143	3898	
702.173	3914	
702.203	3972	
702.232	3932	
702.262	3918	
702.292	3920	
702.322	3910	
702.352	3942	
702.382	3972	
702.412	3898	
702.442	3900	
702.472	3904	
702.502	3924	
702.531	3948	
702.561	3892	
702.591	3946	
702.621	3876	
702.651	3892	
702.681	3882	
702.711	3952	
702.741	3926	
702.771	3900	
702.8	3918	
702.83	3922	
702.86	3932	
702.89	3872	
702.92	3878	
702.95	3912	
702.98	3910	
703.01	3902	
703.039	3908	
703.069	3866	
703.099	3888	
703.129	3922	
703.159	3902	
703.189	3960	
703.219	3892	
703.249	3908	
703.278	3918	
703.308	3928	
703.338	3914	
703.368	3892	
703.398	3820	
703.428	3914	
703.458	3888	
703.487	3894	
703.517	3888	
703.547	3948	
703.577	3912	
703.607	3866	
703.637	3916	
703.667	3868	
703.696	3824	
703.726	3892	
703.756	3916	
703.786	3864	
703.816	3916	
703.846	3898	
703.876	3918	
703.905	3878	
703.935	3910	
703.965	3930	
703.995	3902	
704.025	3894	
704.055	3872	
704.084	3870	
704.114	3910	
704.144	3910	
704.174	3856	
704.204	3902	
704.234	3942	
704.263	3922	
704.293	3992	
704.323	3936	
704.353	3904	
704.383	3882	
704.413	3882	
704.442	3884	
704.472	3880	
704.502	3904	
704.532	3876	
704.562	3932	
704.592	3888	
704.621	3920	
704.651	3938	
704.681	3918	
704.711	3962	
704.741	3912	
704.77	3912	
704.8	3922	
704.83	3948	
704.86	3980	
704.89	3906	
704.919	3898	
704.949	3954	
704.979	3910	
705.009	3928	
705.039	3914	
705.068	3904	
705.098	3962	
705.128	3948	
705.158	3922	
705.188	3942	
705.217	3926	
705.247	3908	
705.277	3950	
705.307	3956	
705.337	3920	
705.366	3958	
705.396	3908	
705.426	3910	
705.456	3934	
705.486	3898	
705.515	3848	
705.545	3880	
705.575	3930	
705.605	3894	
705.634	3878	
705.664	3898	
705.694	3916	
705.724	3850	
705.754	3896	
705.783	3878	
705.813	3914	
705.843	3902	
705.873	3914	
705.902	3966	
705.932	3888	
705.962	3948	
705.992	3936	
706.021	3914	
706.051	3912	
706.081	3854	
706.111	3914	
706.141	3914	
706.17	3900	
706.2	3908	
706.23	3934	
706.26	3900	
706.289	3826	
706.319	3914	
706.349	3924	
706.379	3902	
706.408	3900	
706.438	3884	
706.468	3922	
706.498	3870	
706.527	3902	
706.557	3878	
706.587	3932	
706.617	3890	
706.646	3908	
706.676	3898	
706.706	3872	
706.735	3924	
706.765	3882	
706.795	3850	
706.825	3864	
706.854	3884	
706.884	3914	
706.914	3896	
706.944	3866	
706.973	3874	
707.003	3928	
707.033	3864	
707.063	3892	
707.092	3908	
707.122	3908	
707.152	3896	
707.181	3908	
707.211	3898	
707.241	3938	
707.271	3854	
707.3	3876	
707.33	3910	
707.36	3884	
707.389	3878	
707.419	3890	
707.449	3874	
707.479	3866	
707.508	3910	
707.538	3876	
707.568	3854	
707.597	3860	
707.627	3934	
707.657	3886	
707.686	3844	
707.716	3878	
707.746	3886	
707.776	3892	
707.805	3908	
707.835	3892	
707.865	3850	
707.894	3862	
707.924	3848	
707.954	3922	
707.983	3874	
708.013	3870	
708.043	3862	
708.072	3906	
708.102	3874	
708.132	3910	
708.162	3890	
708.191	3876	
708.221	3862	
708.251	3840	
708.28	3888	
708.31	3898	
708.34	3902	
708.369	3894	
708.399	3890	
708.429	3836	
708.458	3928	
708.488	3912	
708.518	3824	
708.547	3920	
708.577	3880	
708.607	3880	
708.636	3902	
708.666	3820	
708.696	3880	
708.725	3852	
708.755	3862	
708.785	3894	
708.814	3912	
708.844	3832	
708.874	3926	
708.903	3904	
708.933	3926	
708.963	3914	
708.992	3902	
709.022	3892	
709.051	3888	
709.081	3946	
709.111	3916	
709.14	3922	
709.17	3856	
709.2	3858	
709.229	3900	
709.259	3882	
709.289	3848	
709.318	3872	
709.348	3892	
709.378	3928	
709.407	3874	
709.437	3886	
709.466	3864	
709.496	3878	
709.526	3858	
709.555	3896	
709.585	3868	
709.615	3852	
709.644	3836	
709.674	3852	
709.703	3870	
709.733	3872	
709.763	3884	
709.792	3914	
709.822	3862	
709.852	3888	
709.881	3868	
709.911	3872	
709.94	3884	
709.97	3870	
710	3930	
710.029	3852	
710.059	3882	
710.088	3862	
710.118	3854	
710.148	3862	
710.177	3888	
710.207	3892	
710.236	3846	
710.266	3844	
710.296	3852	
710.325	3884	
710.355	3846	
710.384	3836	
710.414	3872	
710.444	3870	
710.473	3844	
710.503	3868	
710.532	3802	
710.562	3840	
710.592	3850	
710.621	3888	
710.651	3872	
710.68	3900	
710.71	3874	
710.74	3864	
710.769	3868	
710.799	3866	
710.828	3872	
710.858	3890	
710.887	3860	
710.917	3836	
710.947	3830	
710.976	3828	
711.006	3856	
711.035	3878	
711.065	3874	
711.094	3862	
711.124	3896	
711.154	3822	
711.183	3844	
711.213	3846	
711.242	3868	
711.272	3864	
711.301	3866	
711.331	3856	
711.36	3860	
711.39	3870	
711.42	3842	
711.449	3904	
711.479	3866	
711.508	3902	
711.538	3812	
711.567	3904	
711.597	3886	
711.626	3842	
711.656	3802	
711.686	3824	
711.715	3842	
711.745	3852	
711.774	3800	
711.804	3832	
711.833	3886	
711.863	3834	
711.892	3840	
711.922	3826	
711.951	3804	
711.981	3842	
712.01	3878	
712.04	3844	
712.07	3842	
712.099	3852	
712.129	3850	
712.158	3854	
712.188	3860	
712.217	3848	
712.247	3804	
712.276	3826	
712.306	3830	
712.335	3842	
712.365	3826	
712.394	3810	
712.424	3858	
712.453	3784	
712.483	3812	
712.512	3854	
712.542	3834	
712.571	3810	
712.601	3786	
712.63	3882	
712.66	3776	
712.689	3798	
712.719	3798	
712.748	3786	
712.778	3860	
712.807	3766	
712.837	3774	
712.866	3824	
712.896	3796	
712.925	3814	
712.955	3800	
712.984	3814	
713.014	3856	
713.043	3842	
713.073	3812	
713.102	3824	
713.132	3796	
713.161	3802	
713.191	3846	
713.22	3862	
713.25	3822	
713.279	3810	
713.309	3834	
713.338	3828	
713.368	3736	
713.397	3838	
713.427	3756	
713.456	3784	
713.486	3834	
713.515	3798	
713.545	3814	
713.574	3770	
713.604	3776	
713.633	3768	
713.662	3814	
713.692	3812	
713.721	3786	
713.751	3810	
713.78	3788	
713.81	3816	
713.839	3790	
713.869	3784	
713.898	3804	
713.928	3802	
713.957	3822	
713.987	3766	
714.016	3808	
714.045	3768	
714.075	3772	
714.104	3808	
714.134	3792	
714.163	3762	
714.193	3812	
714.222	3810	
714.252	3718	
714.281	3756	
714.311	3786	
714.34	3798	
714.369	3740	
714.399	3740	
714.428	3792	
714.458	3782	
714.487	3752	
714.517	3736	
714.546	3750	
714.575	3792	
714.605	3780	
714.634	3742	
714.664	3718	
714.693	3764	
714.723	3758	
714.752	3714	
714.781	3766	
714.811	3756	
714.84	3746	
714.87	3766	
714.899	3772	
714.929	3766	
714.958	3784	
714.987	3774	
715.017	3766	
715.046	3780	
715.076	3764	
715.105	3758	
715.134	3788	
715.164	3762	
715.193	3772	
715.223	3776	
715.252	3728	
715.281	3766	
715.311	3766	
715.34	3738	
715.37	3778	
715.399	3760	
715.428	3778	
715.458	3740	
715.487	3778	
715.517	3752	
715.546	3742	
715.575	3740	
715.605	3768	
715.634	3750	
715.664	3758	
715.693	3744	
715.722	3726	
715.752	3726	
715.781	3688	
715.811	3758	
715.84	3734	
715.869	3752	
715.899	3708	
715.928	3720	
715.957	3734	
715.987	3752	
716.016	3696	
716.046	3782	
716.075	3706	
716.104	3726	
716.134	3688	
716.163	3748	
716.192	3728	
716.222	3702	
716.251	3714	
716.28	3726	
716.31	3716	
716.339	3738	
716.369	3722	
716.398	3752	
716.427	3714	
716.457	3740	
716.486	3748	
716.515	3738	
716.545	3706	
716.574	3728	
716.603	3720	
716.633	3708	
716.662	3764	
716.691	3778	
716.721	3716	
716.75	3708	
716.779	3744	
716.809	3762	
716.838	3756	
716.867	3704	
716.897	3682	
716.926	3782	
716.956	3724	
716.985	3716	
717.014	3716	
717.044	3702	
717.073	3700	
717.102	3720	
717.131	3740	
717.161	3720	
717.19	3716	
717.219	3740	
717.249	3746	
717.278	3704	
717.307	3730	
717.337	3712	
717.366	3700	
717.395	3756	
717.425	3732	
717.454	3716	
717.483	3706	
717.513	3682	
717.542	3716	
717.571	3724	
717.601	3682	
717.63	3714	
717.659	3688	
717.689	3704	
717.718	3708	
717.747	3698	
717.776	3762	
717.806	3714	
717.835	3732	
717.864	3702	
717.894	3686	
717.923	3678	
717.952	3754	
717.982	3714	
718.011	3712	
718.04	3736	
718.069	3698	
718.099	3710	
718.128	3652	
718.157	3714	
718.187	3732	
718.216	3710	
718.245	3716	
718.274	3688	
718.304	3714	
718.333	3706	
718.362	3756	
718.392	3722	
718.421	3700	
718.45	3696	
718.479	3740	
718.509	3770	
718.538	3768	
718.567	3728	
718.596	3720	
718.626	3710	
718.655	3696	
718.684	3758	
718.714	3704	
718.743	3716	
718.772	3712	
718.801	3672	
718.831	3766	
718.86	3700	
718.889	3710	
718.918	3680	
718.948	3770	
718.977	3698	
719.006	3722	
719.035	3712	
719.065	3718	
719.094	3724	
719.123	3734	
719.152	3652	
719.182	3686	
719.211	3698	
719.24	3734	
719.269	3734	
719.299	3722	
719.328	3686	
719.357	3714	
719.386	3720	
719.416	3738	
719.445	3718	
719.474	3728	
719.503	3710	
719.532	3766	
719.562	3706	
719.591	3654	
719.62	3728	
719.649	3734	
719.679	3710	
719.708	3760	
719.737	3734	
719.766	3734	
719.795	3736	
719.825	3660	
719.854	3668	
719.883	3694	
719.912	3722	
719.942	3724	
719.971	3712	
720	3742	
720.029	3692	
720.058	3754	
720.088	3728	
720.117	3734	
720.146	3756	
720.175	3718	
720.204	3754	
720.234	3742	
720.263	3710	
720.292	3742	
720.321	3764	
720.35	3700	
720.38	3686	
720.409	3702	
720.438	3750	
720.467	3766	
720.496	3770	
720.526	3764	
720.555	3722	
720.584	3694	
720.613	3722	
720.642	3680	
720.672	3762	
720.701	3698	
720.73	3700	
720.759	3698	
720.788	3708	
720.817	3720	
720.847	3722	
720.876	3692	
720.905	3712	
720.934	3692	
720.963	3708	
720.993	3758	
721.022	3706	
721.051	3670	
721.08	3702	
721.109	3684	
721.138	3698	
721.168	3728	
721.197	3706	
721.226	3756	
721.255	3712	
721.284	3724	
721.313	3708	
721.342	3690	
721.372	3760	
721.401	3688	
721.43	3742	
721.459	3764	
721.488	3742	
721.517	3726	
721.547	3724	
721.576	3720	
721.605	3714	
721.634	3706	
721.663	3694	
721.692	3690	
721.721	3700	
721.751	3696	
721.78	3766	
721.809	3748	
721.838	3738	
721.867	3722	
721.896	3762	
721.925	3728	
721.955	3734	
721.984	3716	
722.013	3724	
722.042	3738	
722.071	3734	
722.1	3720	
722.129	3708	
722.158	3710	
722.188	3652	
722.217	3724	
722.246	3760	
722.275	3700	
722.304	3692	
722.333	3712	
722.362	3726	
722.391	3714	
722.42	3664	
722.45	3730	
722.479	3752	
722.508	3764	
722.537	3752	
722.566	3704	
722.595	3732	
722.624	3722	
722.653	3740	
722.682	3738	
722.712	3656	
722.741	3704	
722.77	3692	
722.799	3678	
722.828	3722	
722.857	3726	
722.886	3692	
722.915	3756	
722.944	3752	
722.973	3714	
723.002	3748	
723.032	3702	
723.061	3706	
723.09	3710	
723.119	3716	
723.148	3728	
723.177	3686	
723.206	3774	
723.235	3642	
723.264	3692	
723.293	3744	
723.322	3712	
723.351	3712	
723.38	3738	
723.41	3702	
723.439	3722	
723.468	3690	
723.497	3702	
723.526	3720	
723.555	3696	
723.584	3698	
723.613	3742	
723.642	3666	
723.671	3694	
723.7	3694	
723.729	3694	
723.758	3748	
723.787	3650	
723.816	3692	
723.845	3748	
723.875	3732	
723.904	3748	
723.933	3716	
723.962	3724	
723.991	3674	
724.02	3700	
724.049	3720	
724.078	3702	
724.107	3710	
724.136	3692	
724.165	3674	
724.194	3692	
724.223	3716	
724.252	3678	
724.281	3718	
724.31	3692	
724.339	3670	
724.368	3694	
724.397	3692	
724.426	3676	
724.455	3730	
724.484	3650	
724.513	3682	
724.542	3722	
724.571	3728	
724.6	3736	
724.629	3686	
724.658	3718	
724.688	3674	
724.717	3638	
724.746	3706	
724.775	3712	
724.804	3694	
724.833	3706	
724.862	3676	
724.891	3666	
724.92	3642	
724.949	3658	
724.978	3654	
725.007	3674	
725.036	3718	
725.065	3712	
725.094	3678	
725.123	3658	
725.152	3660	
725.181	3690	
725.21	3674	
725.239	3690	
725.268	3668	
725.297	3654	
725.326	3690	
725.355	3648	
725.384	3662	
725.413	3702	
725.442	3660	
725.471	3658	
725.5	3746	
725.528	3648	
725.557	3688	
725.586	3644	
725.615	3660	
725.644	3628	
725.673	3652	
725.702	3694	
725.731	3666	
725.76	3636	
725.789	3688	
725.818	3700	
725.847	3690	
725.876	3688	
725.905	3664	
725.934	3696	
725.963	3648	
725.992	3674	
726.021	3660	
726.05	3668	
726.079	3636	
726.108	3666	
726.137	3666	
726.166	3706	
726.195	3666	
726.224	3660	
726.253	3686	
726.282	3658	
726.311	3674	
726.339	3624	
726.368	3608	
726.397	3664	
726.426	3660	
726.455	3668	
726.484	3670	
726.513	3676	
726.542	3676	
726.571	3682	
726.6	3676	
726.629	3654	
726.658	3664	
726.687	3646	
726.716	3616	
726.745	3686	
726.774	3688	
726.803	3686	
726.831	3654	
726.86	3662	
726.889	3686	
726.918	3674	
726.947	3646	
726.976	3662	
727.005	3612	
727.034	3660	
727.063	3634	
727.092	3648	
727.121	3650	
727.15	3618	
727.178	3646	
727.207	3620	
727.236	3620	
727.265	3684	
727.294	3646	
727.323	3644	
727.352	3662	
727.381	3678	
727.41	3648	
727.439	3658	
727.468	3660	
727.496	3644	
727.525	3684	
727.554	3694	
727.583	3644	
727.612	3644	
727.641	3654	
727.67	3656	
727.699	3652	
727.728	3632	
727.756	3666	
727.785	3680	
727.814	3684	
727.843	3706	
727.872	3656	
727.901	3640	
727.93	3664	
727.959	3668	
727.988	3622	
728.016	3666	
728.045	3646	
728.074	3648	
728.103	3674	
728.132	3662	
728.161	3682	
728.19	3638	
728.218	3630	
728.247	3666	
728.276	3640	
728.305	3588	
728.334	3632	
728.363	3608	
728.392	3662	
728.421	3646	
728.449	3664	
728.478	3638	
728.507	3650	
728.536	3622	
728.565	3672	
728.594	3636	
728.623	3686	
728.651	3700	
728.68	3640	
728.709	3656	
728.738	3650	
728.767	3604	
728.796	3602	
728.824	3658	
728.853	3614	
728.882	3566	
728.911	3618	
728.94	3636	
728.969	3628	
728.997	3648	
729.026	3648	
729.055	3584	
729.084	3628	
729.113	3570	
729.142	3604	
729.17	3620	
729.199	3632	
729.228	3630	
729.257	3616	
729.286	3608	
729.315	3630	
729.343	3614	
729.372	3624	
729.401	3608	
729.43	3588	
729.459	3594	
729.487	3572	
729.516	3642	
729.545	3618	
729.574	3622	
729.603	3584	
729.631	3606	
729.66	3576	
729.689	3638	
729.718	3616	
729.747	3612	
729.776	3614	
729.804	3598	
729.833	3592	
729.862	3576	
729.891	3568	
729.92	3622	
729.948	3642	
729.977	3614	
730.006	3602	
730.035	3612	
730.063	3600	
730.092	3650	
730.121	3608	
730.15	3630	
730.179	3646	
730.207	3562	
730.236	3614	
730.265	3612	
730.294	3636	
730.322	3562	
730.351	3570	
730.38	3594	
730.409	3576	
730.438	3550	
730.466	3620	
730.495	3566	
730.524	3634	
730.553	3574	
730.581	3626	
730.61	3578	
730.639	3600	
730.668	3616	
730.696	3584	
730.725	3584	
730.754	3596	
730.783	3582	
730.812	3586	
730.84	3598	
730.869	3568	
730.898	3594	
730.927	3566	
730.955	3582	
730.984	3588	
731.013	3586	
731.042	3606	
731.07	3566	
731.099	3580	
731.128	3594	
731.156	3582	
731.185	3560	
731.214	3578	
731.243	3568	
731.271	3568	
731.3	3548	
731.329	3530	
731.358	3588	
731.386	3540	
731.415	3490	
731.444	3576	
731.473	3552	
731.501	3530	
731.53	3566	
731.559	3570	
731.587	3552	
731.616	3580	
731.645	3562	
731.674	3556	
731.702	3580	
731.731	3564	
731.76	3556	
731.788	3546	
731.817	3580	
731.846	3544	
731.875	3524	
731.903	3564	
731.932	3568	
731.961	3548	
731.989	3530	
732.018	3532	
732.047	3582	
732.076	3516	
732.104	3544	
732.133	3518	
732.162	3602	
732.19	3584	
732.219	3550	
732.248	3542	
732.276	3520	
732.305	3528	
732.334	3520	
732.362	3518	
732.391	3538	
732.42	3546	
732.449	3586	
732.477	3542	
732.506	3540	
732.535	3548	
732.563	3556	
732.592	3510	
732.621	3544	
732.649	3530	
732.678	3548	
732.707	3596	
732.735	3524	
732.764	3564	
732.793	3568	
732.821	3524	
732.85	3564	
732.879	3530	
732.907	3544	
732.936	3520	
732.965	3542	
732.993	3508	
733.022	3536	
733.051	3484	
733.079	3462	
733.108	3522	
733.137	3500	
733.165	3490	
733.194	3516	
733.223	3478	
733.251	3502	
733.28	3538	
733.309	3534	
733.337	3448	
733.366	3496	
733.394	3510	
733.423	3450	
733.452	3492	
733.48	3496	
733.509	3514	
733.538	3500	
733.566	3468	
733.595	3482	
733.624	3514	
733.652	3496	
733.681	3458	
733.709	3478	
733.738	3492	
733.767	3504	
733.795	3460	
733.824	3490	
733.853	3528	
733.881	3532	
733.91	3526	
733.938	3520	
733.967	3454	
733.996	3514	
734.024	3464	
734.053	3472	
734.082	3468	
734.11	3498	
734.139	3500	
734.167	3470	
734.196	3448	
734.225	3446	
734.253	3468	
734.282	3442	
734.31	3462	
734.339	3472	
734.368	3500	
734.396	3468	
734.425	3486	
734.453	3470	
734.482	3482	
734.511	3440	
734.539	3428	
734.568	3500	
734.596	3504	
734.625	3468	
734.653	3454	
734.682	3480	
734.711	3406	
734.739	3462	
734.768	3442	
734.796	3474	
734.825	3476	
734.854	3472	
734.882	3432	
734.911	3456	
734.939	3458	
734.968	3462	
734.996	3444	
735.025	3428	
735.054	3456	
735.082	3394	
735.111	3462	
735.139	3450	
735.168	3450	
735.196	3456	
735.225	3444	
735.254	3454	
735.282	3454	
735.311	3422	
735.339	3450	
735.368	3444	
735.396	3456	
735.425	3422	
735.453	3430	
735.482	3452	
735.511	3434	
735.539	3440	
735.568	3418	
735.596	3408	
735.625	3420	
735.653	3468	
735.682	3392	
735.71	3432	
735.739	3454	
735.767	3410	
735.796	3440	
735.824	3428	
735.853	3436	
735.882	3446	
735.91	3444	
735.939	3432	
735.967	3468	
735.996	3430	
736.024	3424	
736.053	3410	
736.081	3442	
736.11	3392	
736.138	3428	
736.167	3412	
736.195	3434	
736.224	3382	
736.252	3424	
736.281	3434	
736.309	3416	
736.338	3412	
736.366	3432	
736.395	3388	
736.423	3390	
736.452	3440	
736.48	3396	
736.509	3412	
736.537	3370	
736.566	3400	
736.594	3398	
736.623	3392	
736.651	3402	
736.68	3422	
736.708	3428	
736.737	3380	
736.765	3412	
736.794	3438	
736.822	3414	
736.851	3358	
736.879	3402	
736.908	3422	
736.936	3416	
736.965	3444	
736.993	3462	
737.022	3388	
737.05	3398	
737.079	3428	
737.107	3370	
737.136	3372	
737.164	3392	
737.193	3412	
737.221	3388	
737.25	3398	
737.278	3412	
737.307	3386	
737.335	3408	
737.364	3422	
737.392	3392	
737.42	3398	
737.449	3390	
737.477	3404	
737.506	3366	
737.534	3352	
737.563	3364	
737.591	3388	
737.62	3344	
737.648	3452	
737.677	3392	
737.705	3350	
737.733	3396	
737.762	3368	
737.79	3356	
737.819	3456	
737.847	3386	
737.876	3382	
737.904	3388	
737.933	3424	
737.961	3418	
737.989	3384	
738.018	3368	
738.046	3404	
738.075	3424	
738.103	3418	
738.132	3376	
738.16	3400	
738.189	3382	
738.217	3398	
738.245	3418	
738.274	3410	
738.302	3396	
738.331	3340	
738.359	3388	
738.387	3374	
738.416	3402	
738.444	3432	
738.473	3376	
738.501	3372	
738.53	3376	
738.558	3380	
738.586	3374	
738.615	3360	
738.643	3386	
738.672	3392	
738.7	3376	
738.728	3376	
738.757	3394	
738.785	3398	
738.814	3400	
738.842	3358	
738.87	3420	
738.899	3354	
738.927	3432	
738.956	3426	
738.984	3404	
739.012	3376	
739.041	3380	
739.069	3362	
739.098	3358	
739.126	3386	
739.154	3384	
739.183	3356	
739.211	3344	
739.24	3372	
739.268	3390	
739.296	3368	
739.325	3374	
739.353	3372	
739.381	3404	
739.41	3348	
739.438	3370	
739.467	3384	
739.495	3384	
739.523	3392	
739.552	3386	
739.58	3340	
739.608	3374	
739.637	3370	
739.665	3366	
739.693	3384	
739.722	3448	
739.75	3344	
739.779	3370	
739.807	3344	
739.835	3376	
739.864	3372	
739.892	3348	
739.92	3360	
739.949	3386	
739.977	3332	
740.005	3364	
740.034	3404	
740.062	3394	
740.09	3356	
740.119	3346	
740.147	3338	
740.175	3394	
740.204	3348	
740.232	3344	
740.26	3366	
740.289	3374	
740.317	3318	
740.345	3360	
740.374	3328	
740.402	3428	
740.43	3362	
740.459	3326	
740.487	3330	
740.515	3362	
740.544	3386	
740.572	3360	
740.6	3374	
740.629	3322	
740.657	3374	
740.685	3368	
740.714	3380	
740.742	3364	
740.77	3328	
740.799	3318	
740.827	3350	
740.855	3338	
740.883	3380	
740.912	3340	
740.94	3358	
740.968	3334	
740.997	3378	
741.025	3330	
741.053	3320	
741.082	3354	
741.11	3350	
741.138	3314	
741.166	3324	
741.195	3334	
741.223	3334	
741.251	3302	
741.28	3338	
741.308	3322	
741.336	3358	
741.364	3328	
741.393	3388	
741.421	3360	
741.449	3364	
741.478	3352	
741.506	3310	
741.534	3304	
741.562	3286	
741.591	3318	
741.619	3338	
741.647	3352	
741.676	3328	
741.704	3318	
741.732	3360	
741.76	3366	
741.789	3318	
741.817	3332	
741.845	3382	
741.873	3332	
741.902	3334	
741.93	3342	
741.958	3308	
741.986	3354	
742.015	3296	
742.043	3310	
742.071	3308	
742.099	3318	
742.128	3332	
742.156	3310	
742.184	3288	
742.212	3312	
742.241	3300	
742.269	3328	
742.297	3304	
742.325	3310	
742.354	3326	
742.382	3318	
742.41	3292	
742.438	3270	
742.467	3314	
742.495	3344	
742.523	3266	
742.551	3330	
742.58	3308	
742.608	3314	
742.636	3358	
742.664	3332	
742.692	3334	
742.721	3304	
742.749	3274	
742.777	3320	
742.805	3296	
742.834	3310	
742.862	3292	
742.89	3270	
742.918	3280	
742.946	3282	
742.975	3302	
743.003	3310	
743.031	3278	
743.059	3278	
743.087	3314	
743.116	3238	
743.144	3324	
743.172	3276	
743.2	3278	
743.228	3304	
743.257	3294	
743.285	3256	
743.313	3294	
743.341	3262	
743.369	3262	
743.398	3290	
743.426	3288	
743.454	3290	
743.482	3308	
743.51	3276	
743.539	3242	
743.567	3298	
743.595	3316	
743.623	3282	
743.651	3302	
743.679	3264	
743.708	3286	
743.736	3272	
743.764	3296	
743.792	3276	
743.82	3300	
743.849	3260	
743.877	3286	
743.905	3278	
743.933	3260	
743.961	3274	
743.989	3244	
744.018	3286	
744.046	3292	
744.074	3270	
744.102	3298	
744.13	3274	
744.158	3252	
744.186	3228	
744.215	3312	
744.243	3260	
744.271	3270	
744.299	3252	
744.327	3242	
744.355	3248	
744.384	3256	
744.412	3268	
744.44	3230	
744.468	3270	
744.496	3256	
744.524	3276	
744.552	3264	
744.58	3248	
744.609	3270	
744.637	3226	
744.665	3270	
744.693	3250	
744.721	3250	
744.749	3280	
744.777	3246	
744.806	3226	
744.834	3252	
744.862	3270	
744.89	3264	
744.918	3266	
744.946	3230	
744.974	3246	
745.002	3248	
745.031	3234	
745.059	3276	
745.087	3272	
745.115	3264	
745.143	3236	
745.171	3272	
745.199	3266	
745.227	3320	
745.255	3232	
745.283	3240	
745.312	3260	
745.34	3252	
745.368	3252	
745.396	3266	
745.424	3190	
745.452	3246	
745.48	3278	
745.508	3248	
745.536	3280	
745.564	3268	
745.593	3260	
745.621	3246	
745.649	3250	
745.677	3276	
745.705	3226	
745.733	3238	
745.761	3266	
745.789	3252	
745.817	3250	
745.845	3234	
745.873	3226	
745.901	3268	
745.93	3236	
745.958	3240	
745.986	3224	
746.014	3262	
746.042	3262	
746.07	3238	
746.098	3234	
746.126	3234	
746.154	3234	
746.182	3234	
746.21	3256	
746.238	3252	
746.266	3258	
746.294	3240	
746.322	3208	
746.35	3268	
746.379	3262	
746.407	3222	
746.435	3298	
746.463	3274	
746.491	3258	
746.519	3250	
746.547	3224	
746.575	3238	
746.603	3290	
746.631	3230	
746.659	3298	
746.687	3230	
746.715	3250	
746.743	3272	
746.771	3248	
746.799	3294	
746.827	3250	
746.855	3264	
746.883	3230	
746.911	3216	
746.939	3256	
746.967	3250	
746.995	3296	
747.023	3306	
747.051	3200	
747.079	3260	
747.107	3248	
747.135	3282	
747.163	3266	
747.191	3270	
747.219	3250	
747.248	3290	
747.276	3256	
747.304	3220	
747.332	3256	
747.36	3218	
747.388	3262	
747.416	3258	
747.444	3230	
747.472	3260	
747.5	3228	
747.528	3260	
747.556	3268	
747.584	3260	
747.612	3232	
747.64	3210	
747.668	3246	
747.696	3234	
747.724	3266	
747.751	3262	
747.779	3218	
747.807	3264	
747.835	3244	
747.863	3230	
747.891	3252	
747.919	3226	
747.947	3238	
747.975	3284	
748.003	3244	
748.031	3270	
748.059	3308	
748.087	3314	
748.115	3262	
748.143	3294	
748.171	3270	
748.199	3240	
748.227	3258	
748.255	3254	
748.283	3236	
748.311	3200	
748.339	3248	
748.367	3236	
748.395	3270	
748.423	3250	
748.451	3244	
748.479	3264	
748.507	3252	
748.535	3234	
748.563	3218	
748.591	3248	
748.618	3222	
748.646	3212	
748.674	3218	
748.702	3214	
748.73	3192	
748.758	3174	
748.786	3202	
748.814	3196	
748.842	3218	
748.87	3152	
748.898	3170	
748.926	3138	
748.954	3134	
748.982	3120	
749.01	3064	
749.038	3064	
749.065	3042	
749.093	3032	
749.121	3008	
749.149	2894	
749.177	2908	
749.205	2864	
749.233	2864	
